construct	frequency	avg_constituent_len
1	764	2.0366492146596857
2	637	1.7762951334379906
3	456	1.6980994152046784
4	295	1.7008474576271186
5	226	1.643362831858407
6	162	1.7006172839506173
7	116	1.66871921182266
8	97	1.6881443298969072
9	69	1.6586151368760065
10	48	1.6625
11	37	1.7174447174447174
12	27	1.6358024691358024
13	15	1.6
14.318181818181818	22	1.6285714285714286
16.818181818181817	11	1.6611490289895863
