construct	frequency	avg_constituent_len
1	1144	2.2316433566433567
2	747	2.0214190093708164
3	596	1.8199105145413872
4	376	1.8198138297872342
5	275	1.8014545454545456
6	176	1.8267045454545456
7	123	1.8153310104529616
8	84	1.7604166666666667
9	56	1.8650793650793651
10	48	1.8958333333333333
11	27	1.9764309764309764
12	19	1.9035087719298245
13	16	1.6201923076923077
14	15	1.9190476190476191
16.692307692307693	13	1.8770424836601305
